time,values
0.002,0.0935
0.004,0.0329
0.006,0.103
0.008,0.13
0.01,0.0516
0.012,0.0473
0.014,0.0418
0.016,0.0425
0.018,0.0712
0.02,0.0543
0.022,0.108
0.024,0.037
0.026,0.0684
0.028,0.132
0.03,0.0839
0.032,0.121
0.034,0.0846
0.036,0.0778
0.038,0.109
0.04,0.0612
0.042,0.084
0.044,0.0592
0.046,0.103
0.048,0.0531
0.05,0.0479
0.052,0.0759
0.054,0.0653
0.056,0.0782
0.058,0.146
0.06,0.0769
0.062,0.114
0.064,0.0368
0.066,0.121
0.068,0.0555
0.07,0.0224
0.072,0.109
0.074,0.0714
0.076,0.0481
0.078,0.122
0.08,0.0276
0.082,0.118
0.084,0.039
0.086,0.0472
0.088,0.0396
0.09,0.0451
0.092,0.0989
0.094,0.0962
0.096,0.0753
0.098,0.054
0.1,0.102
0.102,0.0239
0.104,0.0457
0.106,0.084
0.108,0.0591
0.11,0.0383
0.112,0.104
0.114,0.0475
0.116,0.0413
0.118,0.079
0.12,0.104
0.122,0.0823
0.124,0.122
0.126,0.0949
0.128,0.053
0.13,0.0714
0.132,0.0677
0.134,0.107
0.136,0.0478
0.138,0.125
0.14,0.0568
0.142,0.083
0.144,0.098
0.146,0.0906
0.148,0.0758
0.15,0.0809
0.152,0.0617
0.154,0.0429
0.156,0.0782
0.158,0.0689
0.16,0.122
0.162,0.0717
0.164,0.11
0.166,0.0936
0.168,0.0412
0.17,0.0622
0.172,0.0946
0.174,0.0484
0.176,0.0584
0.178,0.0566
0.18,0.101
0.182,0.0602
0.184,0.11
0.186,0.0945
0.188,0.0687
0.19,0.0548
0.192,0.0579
0.194,0.0273
0.196,0.13
0.198,0.0374
0.2,0.0976
0.202,0.0505
0.204,0.106
0.206,0.0839
0.208,0.0899
0.21,0.0617
0.212,0.00819
0.214,0.0515
0.216,0.109
0.218,0.051
0.22,0.114
0.222,0.103
0.224,0.0957
0.226,0.0311
0.228,0.0715
0.23,0.101
0.232,0.0897
0.234,0.0733
0.236,0.0672
0.238,0.0907
0.24,0.0388
0.242,0.118
0.244,0.112
0.246,0.0427
0.248,0.0947
0.25,0.0415
0.252,0.074
0.254,0.0785
0.256,0.0944
0.258,0.0363
0.26,0.041
0.262,0.112
0.264,0.12
0.266,0.0979
0.268,0.0453
0.27,0.0183
0.272,0.103
0.274,0.136
0.276,0.0756
0.278,0.0798
0.28,0.0569
0.282,0.0806
0.284,0.0833
0.286,0.111
0.288,0.123
0.29,0.0535
0.292,0.0937
0.294,-0.0782
0.296,0.0927
0.298,0.845
0.3,1.07
0.302,-0.555
0.304,-0.387
0.306,-0.184
0.308,-0.24
0.31,0.00292
0.312,0.88
0.314,0.498
0.316,-0.442
0.318,-0.325
0.32,1.07
0.322,0.256
0.324,-0.826
0.326,0.619
0.328,-0.593
0.33,1.08
0.332,0.746
0.334,-0.6
0.336,0.0879
0.338,-0.0908
0.34,-0.154
0.342,0.207
0.344,-0.0381
0.346,0.259
0.348,-0.145
0.35,-0.83
0.352,0.985
0.354,-0.105
0.356,0.94
0.358,-0.367
0.36,-0.881
0.362,-0.683
0.364,0.124
0.366,1.07
0.368,-0.289
0.37,-0.646
0.372,-0.717
0.374,-0.168
0.376,0.291
0.378,-0.306
0.38,-0.666
0.382,-0.815
0.384,-0.55
0.386,-0.643
0.388,0.964
0.39,0.286
0.392,0.448
0.394,-0.345
0.396,0.742
0.398,0.0907
0.4,-0.218
0.402,0.274
0.404,0.505
0.406,0.385
0.408,-0.713
0.41,0.978
0.412,0.627
0.414,-0.499
0.416,-0.00203
0.418,0.985
0.42,0.672
0.422,0.481
0.424,-0.495
0.426,0.448
0.428,1.04
0.43,0.583
0.432,-0.442
0.434,0.963
0.436,0.516
0.438,0.233
0.44,-0.214
0.442,-0.103
0.444,0.679
0.446,0.448
0.448,-0.76
0.45,0.524
0.452,0.667
0.454,-1.05
0.456,0.107
0.458,-0.0465
0.46,0.317
0.462,0.192
0.464,0.202
0.466,-0.475
0.468,-0.695
0.47,-0.0352
0.472,-0.789
0.474,0.74
0.476,0.295
0.478,0.513
0.48,-0.07
0.482,1.22
0.484,-0.759
0.486,-0.899
0.488,0.753
0.49,0.358
0.492,-0.385
0.494,1.08
0.496,-0.171
0.498,0.339
0.5,0.383
0.502,0.565
0.504,-0.864
0.506,0.221
0.508,-0.0936
0.51,0.42
0.512,0.208
0.514,-0.672
0.516,-0.63
0.518,0.421
0.52,0.727
0.522,0.919
0.524,-0.712
0.526,0.493
0.528,-0.693
0.53,-0.514
0.532,0.956
0.534,-0.457
0.536,-0.802
0.538,-0.583
0.54,0.222
0.542,0.194
0.544,0.522
0.546,0.0784
0.548,0.0358
0.55,0.861
0.552,0.819
0.554,0.722
0.556,-0.0668
0.558,-0.918
0.56,-0.466
0.562,0.882
0.564,-0.182
0.566,0.836
0.568,0.831
0.57,-0.305
0.572,-0.293
0.574,-0.554
0.576,0.147
0.578,0.807
0.58,0.498
0.582,-0.634
0.584,0.0108
0.586,-0.215
0.588,0.566
0.59,0.83
0.592,0.884
0.594,-0.61
0.596,-0.639
0.598,-0.168
0.6,-0.551
0.602,-0.362
0.604,-0.0795
0.606,0.55
0.608,-0.562
0.61,-0.855
0.612,-0.676
0.614,0.22
0.616,-0.943
0.618,0.0768
0.62,0.11
0.622,-0.863
0.624,-0.742
0.626,0.671
0.628,0.261
0.63,-0.527
0.632,-0.136
0.634,-0.582
0.636,-0.628
0.638,0.719
0.64,0.993
0.642,0.814
0.644,0.288
0.646,-0.371
0.648,-0.114
0.65,0.0307
0.652,-0.43
0.654,-0.259
0.656,-0.0651
0.658,0.55
0.66,-0.0768
0.662,-0.696
0.664,-0.819
0.666,-0.581
0.668,-0.696
0.67,-0.246
0.672,0.381
0.674,0.093
0.676,0.634
0.678,-0.145
0.68,-0.403
0.682,0.197
0.684,-0.291
0.686,0.133
0.688,0.697
0.69,-0.475
0.692,0.249
0.694,0.379
0.696,0.0981
0.698,0.488
0.7,0.187
0.702,0.799
0.704,0.401
0.706,-0.0731
0.708,0.109
0.71,-0.598
0.712,0.203
0.714,0.59
0.716,-0.0885
0.718,0.176
0.72,-0.137
0.722,0.137
0.724,0.153
0.726,1.02
0.728,1.05
0.73,0.513
0.732,-0.58
0.734,-0.666
0.736,0.0858
0.738,-0.802
0.74,-0.424
0.742,-0.934
0.744,-0.893
0.746,-0.99
0.748,0.403
0.75,0.463
0.752,0.376
0.754,-0.435
0.756,-0.792
0.758,0.959
0.76,0.137
0.762,-0.0751
0.764,1.12
0.766,0.0781
0.768,-0.891
0.77,-0.397
0.772,0.257
0.774,0.751
0.776,-0.0181
0.778,-0.853
0.78,0.507
0.782,0.0138
0.784,-0.129
0.786,-0.656
0.788,-0.373
0.79,0.226
0.792,0.584
0.794,0.308
0.796,-0.267
0.798,0.233
0.8,-0.465
0.802,-0.012
0.804,-3.06E-05
0.806,-0.164
0.808,0.0399
0.81,0.0794
0.812,0.101
0.814,0.0898
0.816,0.0965
0.818,0.12
0.82,0.113
0.822,0.0697
0.824,0.0346
0.826,0.0726
0.828,0.0407
0.83,0.0587
0.832,0.0776
0.834,0.0579
0.836,0.107
0.838,0.0913
0.84,0.0907
0.842,0.117
0.844,0.0612
0.846,0.121
0.848,0.065
0.85,0.0662
0.852,0.0919
0.854,0.118
0.856,0.0437
0.858,0.0706
0.86,0.102
0.862,0.101
0.864,0.0853
0.866,0.0719
0.868,0.0762
0.87,0.113
0.872,0.0654
0.874,0.0445
0.876,0.0817
0.878,0.0601
0.88,0.0862
0.882,0.0501
0.884,0.0931
0.886,0.0547
0.888,0.0494
0.89,0.0507
0.892,0.0763
0.894,0.103
0.896,0.0751
0.898,0.0732
0.9,0.0248
0.902,0.113
0.904,0.0548
0.906,0.113
0.908,0.0368
0.91,0.055
0.912,0.0934
0.914,0.084
0.916,0.131
0.918,0.0679
0.92,0.0737
0.922,0.0599
0.924,0.036
0.926,0.0895
0.928,0.0616
0.93,0.0611
0.932,0.0764
0.934,0.0738
0.936,0.0645
0.938,0.11
0.94,0.0835
0.942,0.0492
0.944,0.135
0.946,0.11
0.948,0.0794
0.95,0.126
0.952,0.078
0.954,0.0716
0.956,0.0325
0.958,0.0587
0.96,0.0437
0.962,0.0718
0.964,0.0719
0.966,0.0717
0.968,0.0511
0.97,0.107
0.972,0.0989
0.974,0.0753
0.976,0.0296
0.978,0.0623
0.98,0.0799
0.982,0.0473
0.984,0.082
0.986,0.0393
0.988,0.0549
0.99,0.0734
0.992,0.0925
0.994,0.11
0.996,0.111
0.998,0.0904
1,0.0449
1.002,0.0356
1.004,0.0992
1.006,0.0781
1.008,0.0374
1.01,0.0815
1.012,0.06
1.014,0.125
1.016,0.07
1.018,0.0981
1.02,0.0412
1.022,0.0505
1.024,0.0983
1.026,0.0366
1.028,0.0617
1.03,0.0342
1.032,0.0942
1.034,0.0705
1.036,0.106
1.038,0.105
1.04,0.132
1.042,0.0501
1.044,0.117
1.046,0.1
1.048,0.0572
1.05,0.0496
1.052,0.0799
1.054,0.0377
1.056,0.124
1.058,0.113
1.06,0.0471
1.062,0.0648
1.064,0.0779
1.066,0.0952
1.068,0.0671
1.07,0.0913
1.072,0.0489
1.074,0.0648
1.076,0.0353
1.078,0.088
1.08,0.032
1.082,0.0734
1.084,0.0577
1.086,0.0345
1.088,0.0517
1.09,0.0641
1.092,0.119
1.094,0.067
1.096,0.0933
1.098,0.158
1.1,0.701
1.102,0.731
1.104,-0.143
1.106,0.842
1.108,0.719
1.11,0.963
1.112,0.757
1.114,-0.718
1.116,-0.898
1.118,-0.36
1.12,0.113
1.122,-0.0218
1.124,-0.431
1.126,0.829
1.128,-0.187
1.13,1.04
1.132,0.546
1.134,-0.339
1.136,-1.08
1.138,0.443
1.14,-0.363
1.142,0.372
1.144,0.46
1.146,0.298
1.148,-0.573
1.15,-0.577
1.152,0.986
1.154,0.492
1.156,-0.543
1.158,-0.734
1.16,0.438
1.162,0.494
1.164,-0.000343
1.166,-0.331
1.168,-0.411
1.17,0.425
1.172,0.0834
1.174,0.41
1.176,0.755
1.178,0.67
1.18,-0.71
1.182,0.548
1.184,0.448
1.186,0.758
1.188,0.3
1.19,0.602
1.192,0.614
1.194,0.291
1.196,-0.787
1.198,-0.821
1.2,0.777
1.202,-1.03
1.204,0.555
1.206,0.565
1.208,0.802
1.21,0.636
1.212,-0.775
1.214,0.378
1.216,-0.0891
1.218,-0.87
1.22,0.0366
1.222,0.747
1.224,0.493
1.226,0.65
1.228,-0.849
1.23,-0.198
1.232,-0.103
1.234,-1.01
1.236,0.211
1.238,0.578
1.24,-0.532
1.242,0.307
1.244,-0.537
1.246,-0.582
1.248,-0.205
1.25,-0.648
1.252,-0.22
1.254,0.39
1.256,0.505
1.258,0.905
1.26,0.362
1.262,-0.859
1.264,-0.398
1.266,0.407
1.268,0.563
1.27,0.758
1.272,-0.987
1.274,0.811
1.276,-0.316
1.278,0.933
1.28,0.0441
1.282,-0.38
1.284,0.223
1.286,0.195
1.288,0.851
1.29,-0.497
1.292,-0.0809
1.294,0.549
1.296,0.00963
1.298,-0.215
1.3,0.0905
1.302,-0.428
1.304,-0.57
1.306,-0.00676
1.308,0.785
1.31,-0.712
1.312,-0.961
1.314,-0.154
1.316,1.4
1.318,0.396
1.32,0.159
1.322,-0.174
1.324,1
1.326,0.821
1.328,0.962
1.33,0.728
1.332,0.777
1.334,0.128
1.336,1.07
1.338,-0.00489
1.34,0.714
1.342,0.503
1.344,-0.017
1.346,-0.893
1.348,0.439
1.35,-0.24
1.352,0.451
1.354,0.516
1.356,-0.654
1.358,0.226
1.36,0.593
1.362,-0.572
1.364,-0.324
1.366,-0.277
1.368,-0.371
1.37,-0.31
1.372,-0.135
1.374,-0.227
1.376,-0.175
1.378,0.23
1.38,0.791
1.382,0.534
1.384,-0.00992
1.386,-0.339
1.388,-0.0658
1.39,-0.00616
1.392,0.924
1.394,0.0678
1.396,-0.353
1.398,0.117
1.4,0.248
1.402,-0.983
1.404,-0.473
1.406,-0.647
1.408,-0.753
1.41,-0.434
1.412,0.185
1.414,1.03
1.416,0.288
1.418,-0.0783
1.42,-0.228
1.422,-0.0735
1.424,-0.446
1.426,0.702
1.428,0.201
1.43,0.764
1.432,-0.351
1.434,0.787
1.436,-0.0872
1.438,0.294
1.44,0.447
1.442,0.154
1.444,0.361
1.446,-0.299
1.448,0.389
1.45,0.845
1.452,-0.571
1.454,-0.172
1.456,0.861
1.458,-0.333
1.46,0.0458
1.462,-0.135
1.464,-0.671
1.466,0.964
1.468,-0.551
1.47,-0.834
1.472,0.25
1.474,-0.0597
1.476,-0.527
1.478,0.563
1.48,0.184
1.482,-0.205
1.484,-0.846
1.486,0.769
1.488,0.288
1.49,-0.695
1.492,-0.163
1.494,0.88
1.496,0.419
1.498,-0.761
1.5,0.362
1.502,-0.55
1.504,0.354
1.506,0.0178
1.508,-0.228
1.51,-0.358
1.512,-0.596
1.514,0.542
1.516,1.01
1.518,-0.135
1.52,0.636
1.522,0.508
1.524,0.682
1.526,0.634
1.528,0.417
1.53,-0.0057
1.532,-0.711
1.534,-0.243
1.536,0.843
1.538,0.733
1.54,-0.515
1.542,-0.544
1.544,0.894
1.546,0.716
1.548,-0.197
1.55,0.616
1.552,-0.168
1.554,0.755
1.556,-0.523
1.558,-0.546
1.56,-0.942
1.562,-0.466
1.564,-0.525
1.566,0.198
1.568,0.57
1.57,-0.262
1.572,0.195
1.574,0.0626
1.576,0.238
1.578,-0.344
1.58,-0.787
1.582,0.672
1.584,-0.38
1.586,0.0928
1.588,0.606
1.59,-0.0808
1.592,-0.127
1.594,-0.114
1.596,0.616
1.598,0.892
1.6,0.665
1.602,0.0405
1.604,0.149
1.606,-0.522
1.608,0.436
1.61,-0.54
1.612,0.125
1.614,0.0904
1.616,0.139
1.618,0.0937
1.62,0.088
1.622,0.115
1.624,0.0438
1.626,0.0754
1.628,0.135
1.63,0.0623
1.632,0.0574
1.634,0.0663
1.636,0.0784
1.638,0.0746
1.64,0.104
1.642,0.0352
1.644,0.0793
1.646,0.0177
1.648,0.0767
1.65,0.128
1.652,0.0555
1.654,0.0632
1.656,0.0504
1.658,0.0659
1.66,0.0816
1.662,0.0472
1.664,0.0915
1.666,0.123
1.668,0.0732
1.67,0.0853
1.672,0.0948
1.674,0.0318
1.676,0.0689
1.678,0.0475
1.68,0.0594
1.682,0.0426
1.684,0.0884
1.686,0.106
1.688,0.0875
1.69,0.0702
1.692,0.0593
1.694,0.0887
1.696,0.0702
1.698,0.0722
1.7,0.055
1.702,0.0492
1.704,0.03
1.706,0.0431
1.708,0.141
1.71,0.0282
1.712,0.124
1.714,0.0734
1.716,0.0833
1.718,0.0533
1.72,0.116
1.722,0.121
1.724,0.112
1.726,0.0915
1.728,0.0939
1.73,0.0372
1.732,0.0516
1.734,0.0936
1.736,0.117
1.738,0.0512
1.74,0.0549
1.742,0.0831
1.744,0.0768
1.746,0.113
1.748,0.068
1.75,0.078
1.752,0.0551
1.754,0.063
1.756,0.0563
1.758,0.0643
1.76,0.0241
1.762,0.0519
1.764,0.0208
1.766,0.101
1.768,0.0419
1.77,0.0922
1.772,0.0757
1.774,0.0705
1.776,0.0641
1.778,0.0661
1.78,0.107
1.782,0.0587
1.784,0.0423
1.786,0.0864
1.788,0.0906
1.79,0.0736
1.792,0.0588
1.794,0.089
1.796,0.0655
1.798,0.0851
1.8,0.0548
1.802,0.0769
1.804,0.0376
1.806,0.0803
1.808,0.0887
1.81,0.0481
1.812,0.103
1.814,0.0635
1.816,0.118
1.818,0.0855
1.82,0.0766
1.822,0.107
1.824,0.106
1.826,0.063
1.828,0.092
1.83,0.0862
1.832,0.0295
1.834,0.131
1.836,0.0467
1.838,0.0807
1.84,0.0484
1.842,0.0387
1.844,0.106
1.846,0.0548
1.848,0.08
1.85,0.067
1.852,0.0347
1.854,0.127
1.856,0.08
1.858,0.0897
1.86,0.115
1.862,0.108
1.864,0.0927
1.866,0.0603
1.868,0.0691
1.87,0.0829
1.872,0.06
1.874,0.108
1.876,0.0403
1.878,0.0557
1.88,0.108
1.882,0.0894
1.884,0.114
1.886,0.106
1.888,0.0353
1.89,0.0422
1.892,0.0951
1.894,0.0906
1.896,0.0803
1.898,0.0684
1.9,0.0938
1.902,0.0676
1.904,0.786
1.906,0.0719
1.908,-0.375
1.91,-0.399
1.912,0.171
1.914,0.494
1.916,-0.328
1.918,0.336
1.92,1.05
1.922,-0.628
1.924,0.282
1.926,0.804
1.928,-0.609
1.93,0.309
1.932,-0.129
1.934,-0.6
1.936,-0.409
1.938,-0.594
1.94,-0.413
1.942,-0.463
1.944,-0.788
1.946,0.257
1.948,0.834
1.95,-0.107
1.952,0.565
1.954,0.298
1.956,0.787
1.958,0.447
1.96,-0.525
1.962,-0.647
1.964,0.843
1.966,-0.0505
1.968,-0.566
1.97,-0.945
1.972,1
1.974,0.0138
1.976,0.196
1.978,-0.161
1.98,-0.47
1.982,-0.788
1.984,0.00632
1.986,-0.213
1.988,0.567
1.99,0.386
1.992,-0.182
1.994,0.559
1.996,-0.723
1.998,0.97
2,0.0621
2.002,0.000201
2.004,0.834
2.006,-0.716
2.008,0.974
2.01,0.726
2.012,0.518
2.014,-0.0945
2.016,0.546
2.018,-0.489
2.02,-0.529
2.022,1.07
2.024,0.719
2.026,0.61
2.028,0.788
2.03,0.399
2.032,0.533
2.034,0.106
2.036,0.457
2.038,0.0301
2.04,0.0474
2.042,-0.00763
2.044,0.283
2.046,-0.847
2.048,-0.853
2.05,-0.225
2.052,-0.234
2.054,-1.02
2.056,-0.475
2.058,-0.314
2.06,-0.131
2.062,0.443
2.064,0.611
2.066,-0.119
2.068,0.212
2.07,0.682
2.072,-0.425
2.074,-0.587
2.076,-0.591
2.078,-0.905
2.08,0.436
2.082,-0.544
2.084,0.942
2.086,-0.749
2.088,-0.0703
2.09,-0.917
2.092,0.552
2.094,-0.0625
2.096,0.581
2.098,0.735
2.1,0.129
2.102,0.514
2.104,-0.396
2.106,-0.766
2.108,-0.438
2.11,0.504
2.112,1.05
2.114,0.0605
2.116,0.0241
2.118,-0.401
2.12,-0.502
2.122,0.26
2.124,1.14
2.126,-0.286
2.128,-0.486
2.13,0.62
2.132,-0.575
2.134,1.03
2.136,-0.621
2.138,-0.189
2.14,0.176
2.142,-0.662
2.144,0.325
2.146,0.617
2.148,-0.302
2.15,0.526
2.152,0.0577
2.154,-0.408
2.156,0.0995
2.158,1.12
2.16,0.178
2.162,0.537
2.164,-0.414
2.166,0.149
2.168,0.376
2.17,-0.657
2.172,-0.629
2.174,1.17
2.176,-0.845
2.178,-0.634
2.18,0.576
2.182,-0.0506
2.184,-0.682
2.186,1.25
2.188,-0.179
2.19,0.75
2.192,-0.0921
2.194,0.892
2.196,-0.312
2.198,1.03
2.2,-0.687
2.202,0.173
2.204,-0.24
2.206,0.32
2.208,0.155
2.21,-0.073
2.212,-0.755
2.214,0.041
2.216,-1.07
2.218,-0.689
2.22,-0.296
2.222,0.902
2.224,0.191
2.226,0.63
2.228,0.437
2.23,0.855
2.232,0.788
2.234,0.844
2.236,-0.482
2.238,0.619
2.24,-0.501
2.242,-0.481
2.244,-0.698
2.246,0.288
2.248,0.501
2.25,-0.921
2.252,0.0158
2.254,-0.907
2.256,-0.1
2.258,0.349
2.26,-0.278
2.262,1.02
2.264,0.763
2.266,-0.509
2.268,-0.0984
2.27,0.795
2.272,0.929
2.274,-0.153
2.276,-0.309
2.278,-0.438
2.28,0.93
2.282,-0.172
2.284,0.337
2.286,0.59
2.288,-0.217
2.29,-0.26
2.292,-0.729
2.294,-0.612
2.296,-0.312
2.298,0.0661
2.3,-0.249
2.302,-0.612
2.304,0.669
2.306,-0.521
2.308,1.01
2.31,0.351
2.312,-0.17
2.314,1.12
2.316,-0.105
2.318,-0.273
2.32,0.457
2.322,-0.834
2.324,0.357
2.326,0.5
2.328,-0.0295
2.33,-0.204
2.332,0.226
2.334,0.829
2.336,0.387
2.338,0.0514
2.34,0.449
2.342,-0.831
2.344,-0.267
2.346,0.229
2.348,-0.226
2.35,-0.0635
2.352,-0.479
2.354,0.667
2.356,0.408
2.358,0.927
2.36,0.632
2.362,-0.137
2.364,-0.305
2.366,-0.0501
2.368,-0.28
2.37,0.459
2.372,0.545
2.374,-0.337
2.376,-0.503
2.378,0.889
2.38,-0.239
2.382,-0.176
2.384,-0.994
2.386,0.7
2.388,0.029
2.39,0.491
2.392,0.517
2.394,0.607
2.396,0.749
2.398,0.232
2.4,-0.531
2.402,-0.739
2.404,0.951
2.406,0.692
2.408,-0.873
2.41,-0.534
2.412,-0.666
2.414,-0.397
2.416,0.106
2.418,0.11
2.42,0.0577
2.422,0.0387
2.424,0.068
2.426,0.0522
2.428,0.103
2.43,0.109
2.432,0.0489
2.434,0.0479
2.436,0.0734
2.438,0.111
2.44,0.0552
2.442,0.0681
2.444,0.102
2.446,0.0743
2.448,0.113
2.45,0.0455
2.452,0.0662
2.454,0.0956
2.456,0.0969
2.458,0.0696
2.46,0.0211
2.462,0.0306
2.464,0.0321
2.466,0.0442
2.468,0.0717
2.47,0.059
2.472,0.0801
2.474,0.0856
2.476,0.062
2.478,0.0806
2.48,0.0868
2.482,0.103
2.484,0.0622
2.486,0.102
2.488,0.0815
2.49,0.0438
2.492,0.0816
2.494,0.063
2.496,0.0507
2.498,0.0702
2.5,0.0303
2.502,0.119
2.504,0.0603
2.506,0.0622
2.508,0.112
2.51,0.0773
2.512,0.0936
2.514,0.0243
2.516,0.117
2.518,0.0262
2.52,0.0385
2.522,0.0531
2.524,0.088
2.526,0.0847
2.528,0.0485
2.53,0.0687
2.532,0.0994
2.534,0.0442
2.536,0.0806
2.538,0.0418
2.54,0.12
2.542,0.0833
2.544,0.048
2.546,0.101
2.548,0.0945
2.55,0.114
2.552,0.0265
2.554,0.1
2.556,0.109
2.558,0.0699
2.56,0.0478
2.562,0.0886
2.564,0.101
2.566,0.0779
2.568,0.0815
2.57,0.0799
2.572,0.104
2.574,0.0495
2.576,0.0457
2.578,0.0998
2.58,0.0336
2.582,0.122
2.584,0.0989
2.586,0.0386
2.588,0.0627
2.59,0.085
2.592,0.0697
2.594,0.0864
2.596,0.1
2.598,0.0682
2.6,0.114
2.602,0.0754
2.604,0.0519
2.606,0.117
2.608,0.141
2.61,0.0925
2.612,0.0648
2.614,0.105
2.616,0.082
2.618,0.0993
2.62,0.092
2.622,0.0432
2.624,0.0974
2.626,0.0401
2.628,0.071
2.63,0.0985
2.632,0.123
2.634,0.0837
2.636,0.0587
2.638,0.0468
2.64,0.0456
2.642,0.106
2.644,0.128
2.646,0.0664
2.648,0.0704
2.65,0.0796
2.652,0.0672
2.654,0.0342
2.656,0.119
2.658,0.117
2.66,0.0607
2.662,0.0717
2.664,0.0326
2.666,0.0765
2.668,0.0395
2.67,0.109
2.672,0.0755
2.674,0.0931
2.676,0.0977
2.678,0.0572
2.68,0.0571
2.682,0.0586
2.684,0.0855
2.686,0.0371
2.688,0.0656
2.69,0.112
2.692,0.033
2.694,0.112
2.696,0.0937
2.698,0.0737
2.7,0.0847
2.702,0.0889
2.704,0.0579
2.706,0.138
2.708,0.569
2.71,0.769
2.712,-0.759
2.714,-0.276
2.716,0.226
2.718,-0.332
2.72,-0.624
2.722,0.496
2.724,0.189
2.726,0.368
2.728,-0.375
2.73,0.573
2.732,-0.114
2.734,-0.344
2.736,0.506
2.738,0.206
2.74,0.384
2.742,0.39
2.744,0.0716
2.746,1.01
2.748,0.997
2.75,0.373
2.752,-0.855
2.754,1
2.756,0.2
2.758,-0.121
2.76,0.271
2.762,-0.396
2.764,-0.123
2.766,0.0428
2.768,-0.378
2.77,-0.733
2.772,0.312
2.774,0.696
2.776,-0.53
2.778,0.269
2.78,0.46
2.782,0.599
2.784,0.219
2.786,-0.145
2.788,-0.406
2.79,-0.903
2.792,0.348
2.794,-0.12
2.796,-0.57
2.798,0.836
2.8,-0.454
2.802,0.203
2.804,0.905
2.806,0.333
2.808,1.16
2.81,0.229
2.812,0.426
2.814,-0.00696
2.816,-0.558
2.818,-0.563
2.82,0.189
2.822,-0.832
2.824,-0.515
2.826,-0.0716
2.828,-0.679
2.83,0.0927
2.832,0.583
2.834,0.0408
2.836,-0.629
2.838,-0.623
2.84,0.903
2.842,-0.942
2.844,0.218
2.846,-0.973
2.848,0.793
2.85,0.171
2.852,1
2.854,0.093
2.856,-0.531
2.858,0.925
2.86,-0.208
2.862,0.321
2.864,-0.0994
2.866,0.412
2.868,-0.836
2.87,-0.161
2.872,-0.286
2.874,0.617
2.876,0.491
2.878,-0.361
2.88,0.571
2.882,0.26
2.884,0.543
2.886,-0.404
2.888,0.46
2.89,0.122
2.892,0.111
2.894,0.958
2.896,-0.208
2.898,-0.358
2.9,0.519
2.902,-0.193
2.904,-0.903
2.906,-0.777
2.908,1.1
2.91,0.787
2.912,-0.166
2.914,-0.0851
2.916,0.67
2.918,-0.817
2.92,0.0842
2.922,-0.825
2.924,-0.849
2.926,0.27
2.928,0.962
2.93,0.139
2.932,1.11
2.934,0.223
2.936,0.659
2.938,0.208
2.94,0.761
2.942,0.476
2.944,0.387
2.946,0.0213
2.948,-1
2.95,0.746
2.952,0.0102
2.954,-0.196
2.956,0.136
2.958,-0.313
2.96,0.803
2.962,0.538
2.964,0.846
2.966,0.319
2.968,-0.719
2.97,0.838
2.972,-0.325
2.974,-0.131
2.976,-0.775
2.978,0.676
2.98,-0.412
2.982,-0.388
2.984,-0.255
2.986,0.75
2.988,-0.306
2.99,0.121
2.992,-0.267
2.994,-0.304
2.996,-0.0184
2.998,0.522
3,0.45
3.002,-0.431
3.004,-0.0397
3.006,0.793
3.008,0.579
3.01,-0.533
3.012,0.409
3.014,0.373
3.016,-0.5
3.018,0.0825
3.02,-0.28
3.022,-0.566
3.024,0.25
3.026,-0.189
3.028,-0.829
3.03,0.572
3.032,-0.752
3.034,-0.464
3.036,0.321
3.038,-0.264
3.04,1.02
3.042,-0.893
3.044,0.136
3.046,-0.0745
3.048,0.0681
3.05,0.0135
3.052,-0.683
3.054,-0.257
3.056,-0.562
3.058,0.252
3.06,-1.08
3.062,0.1
3.064,0.923
3.066,0.536
3.068,0.945
3.07,-0.153
3.072,0.471
3.074,-0.24
3.076,-0.348
3.078,-0.494
3.08,-0.734
3.082,0.562
3.084,0.261
3.086,0.457
3.088,-0.99
3.09,-0.193
3.092,0.789
3.094,-0.541
3.096,0.778
3.098,-0.339
3.1,0.127
3.102,0.854
3.104,0.662
3.106,0.722
3.108,-0.467
3.11,0.383
3.112,-0.723
3.114,-0.859
3.116,-0.589
3.118,0.732
3.12,0.227
3.122,0.141
3.124,-0.169
3.126,0.906
3.128,0.244
3.13,-0.55
3.132,-0.587
3.134,-0.152
3.136,-0.691
3.138,-0.862
3.14,0.193
3.142,-0.585
3.144,0.879
3.146,0.136
3.148,0.535
3.15,-0.563
3.152,0.0379
3.154,-0.303
3.156,-0.518
3.158,0.0748
3.16,0.731
3.162,0.377
3.164,0.386
3.166,-0.326
3.168,0.463
3.17,-0.0028
3.172,-0.188
3.174,-0.557
3.176,-0.0972
3.178,0.719
3.18,-0.4
3.182,0.406
3.184,-0.295
3.186,0.073
3.188,-0.303
3.19,-0.558
3.192,0.584
3.194,-0.497
3.196,-0.171
3.198,-0.871
3.2,-0.836
3.202,-0.226
3.204,0.912
3.206,-0.289
3.208,-0.511
3.21,0.0295
3.212,0.0776
3.214,0.409
3.216,-0.744
3.218,-0.0355
3.22,0.106
3.222,0.0654
3.224,0.0498
3.226,0.111
3.228,0.0656
3.23,0.0298
3.232,0.0726
3.234,0.0579
3.236,0.115
3.238,0.0441
3.24,0.0312
3.242,0.116
3.244,0.0945
3.246,0.12
3.248,0.102
3.25,0.124
3.252,0.052
3.254,0.0614
3.256,0.0584
3.258,0.0753
3.26,0.073
3.262,0.122
3.264,0.0843
3.266,0.0719
3.268,0.0761
3.27,0.121
3.272,0.0844
3.274,0.0538
3.276,0.121
3.278,0.133
3.28,0.0944
3.282,0.0475
3.284,0.0736
3.286,0.0406
3.288,0.114
3.29,0.0659
3.292,0.0264
3.294,0.05
3.296,0.137
3.298,0.0521
3.3,0.0641
3.302,0.0989
3.304,0.1
3.306,0.083
3.308,0.068
3.31,0.117
3.312,0.0693
3.314,0.031
3.316,0.0522
3.318,0.0707
3.32,0.0346
3.322,0.11
3.324,0.0447
3.326,0.0887
3.328,0.139
3.33,0.0811
3.332,0.0298
3.334,0.121
3.336,0.114
3.338,0.105
3.34,0.0971
3.342,0.0835
3.344,0.121
3.346,0.0208
3.348,0.0732
3.35,0.12
3.352,0.114
3.354,0.0721
3.356,0.0564
3.358,0.0967
3.36,0.132
3.362,0.111
3.364,0.126
3.366,0.0792
3.368,0.119
3.37,0.0601
3.372,0.116
3.374,0.102
3.376,0.117
3.378,0.112
3.38,0.0757
3.382,0.127
3.384,0.0702
3.386,0.105
3.388,0.0132
3.39,0.0487
3.392,0.0392
3.394,0.0772
3.396,0.0812
3.398,0.0593
3.4,0.0771
3.402,0.0982
3.404,0.0714
3.406,0.0806
3.408,0.0594
3.41,0.0788
3.412,0.0833
3.414,0.0823
3.416,0.0512
3.418,0.0703
3.42,0.0414
3.422,0.0357
3.424,0.0766
3.426,0.0488
3.428,0.0869
3.43,0.107
3.432,0.0911
3.434,0.0576
3.436,0.0735
3.438,0.0566
3.44,0.132
3.442,0.0956
3.444,0.0566
3.446,0.0503
3.448,0.0863
3.45,0.0867
3.452,0.0512
3.454,0.0724
3.456,0.0347
3.458,0.103
3.46,0.114
3.462,0.0339
3.464,0.0777
3.466,0.136
3.468,0.055
3.47,0.108
3.472,0.06
3.474,0.118
3.476,0.0791
3.478,0.111
3.48,0.0877
3.482,0.0948
3.484,0.0693
3.486,0.12
3.488,0.0293
3.49,0.104
3.492,0.0733
3.494,0.0663
3.496,0.114
3.498,0.0685
3.5,0.091
3.502,0.0787
3.504,0.0746
3.506,0.0565
3.508,0.103
3.51,0.0488
3.512,0.405
3.514,-0.535
3.516,0.269
3.518,0.365
3.52,0.893
3.522,-0.0796
3.524,0.442
3.526,0.381
3.528,-0.985
3.53,1.3
3.532,0.598
3.534,0.177
3.536,0.512
3.538,0.427
3.54,-0.846
3.542,1.07
3.544,-0.408
3.546,0.878
3.548,0.185
3.55,0.329
3.552,-0.0171
3.554,0.644
3.556,-0.415
3.558,0.565
3.56,-0.283
3.562,-0.421
3.564,0.196
3.566,1.11
3.568,0.15
3.57,0.106
3.572,-0.69
3.574,0.331
3.576,0.359
3.578,-0.769
3.58,0.376
3.582,-0.284
3.584,-0.663
3.586,0.453
3.588,0.731
3.59,0.0283
3.592,0.625
3.594,-0.487
3.596,0.173
3.598,-0.349
3.6,-0.182
3.602,0.272
3.604,-0.0899
3.606,-0.651
3.608,0.474
3.61,0.15
3.612,-0.874
3.614,0.792
3.616,0.162
3.618,-0.222
3.62,0.378
3.622,0.345
3.624,-0.474
3.626,0.659
3.628,0.348
3.63,0.31
3.632,-0.428
3.634,-0.173
3.636,0.342
3.638,-0.757
3.64,-0.6
3.642,-0.472
3.644,-0.134
3.646,-0.207
3.648,0.368
3.65,0.373
3.652,0.276
3.654,-0.647
3.656,-0.00715
3.658,0.611
3.66,0.65
3.662,0.59
3.664,-0.517
3.666,1.1
3.668,-0.783
3.67,0.664
3.672,0.655
3.674,-0.617
3.676,0.819
3.678,1.22
3.68,-0.125
3.682,0.203
3.684,0.675
3.686,-0.226
3.688,0.146
3.69,0.74
3.692,-0.117
3.694,-0.453
3.696,-0.863
3.698,-0.457
3.7,-0.304
3.702,-0.491
3.704,-0.152
3.706,-0.0184
3.708,0.348
3.71,-0.955
3.712,0.169
3.714,0.837
3.716,-0.635
3.718,-0.441
3.72,-0.0864
3.722,-1.06
3.724,-0.0761
3.726,-0.204
3.728,0.272
3.73,-0.508
3.732,0.414
3.734,-0.769
3.736,1.16
3.738,-0.338
3.74,-0.233
3.742,0.21
3.744,0.948
3.746,-0.606
3.748,0.622
3.75,-0.322
3.752,0.794
3.754,-0.152
3.756,-0.205
3.758,-0.0639
3.76,0.453
3.762,0.461
3.764,0.438
3.766,-0.334
3.768,0.264
3.77,-0.016
3.772,0.62
3.774,-0.704
3.776,0.154
3.778,0.751
3.78,0.684
3.782,0.47
3.784,-0.484
3.786,-0.000101
3.788,-0.724
3.79,-0.356
3.792,0.576
3.794,-1.05
3.796,0.259
3.798,1.08
3.8,-0.673
3.802,-0.483
3.804,0.393
3.806,-0.046
3.808,0.756
3.81,0.801
3.812,-0.52
3.814,0.0154
3.816,-0.00394
3.818,-0.101
3.82,0.929
3.822,0.909
3.824,-0.22
3.826,-0.571
3.828,0.0153
3.83,-0.104
3.832,0.104
3.834,-0.149
3.836,0.458
3.838,0.473
3.84,-0.298
3.842,0.563
3.844,-0.311
3.846,0.628
3.848,0.6
3.85,0.195
3.852,0.761
3.854,0.444
3.856,0.143
3.858,-0.689
3.86,-0.441
3.862,0.627
3.864,0.0189
3.866,-0.259
3.868,0.302
3.87,0.357
3.872,0.0714
3.874,-0.138
3.876,-0.198
3.878,-0.245
3.88,0.895
3.882,-0.0825
3.884,0.816
3.886,-0.854
3.888,-0.688
3.89,0.146
3.892,0.459
3.894,-0.7
3.896,-0.339
3.898,1.03
3.9,0.141
3.902,0.444
3.904,0.758
3.906,-0.924
3.908,-0.195
3.91,-0.353
3.912,0.0374
3.914,0.359
3.916,-0.695
3.918,-0.219
3.92,0.394
3.922,-0.476
3.924,0.0325
3.926,0.803
3.928,-0.0513
3.93,0.701
3.932,-0.351
3.934,-0.445
3.936,-0.0869
3.938,-0.156
3.94,0.00969
3.942,1.16
3.944,-0.538
3.946,0.593
3.948,0.624
3.95,-0.765
3.952,0.373
3.954,-0.295
3.956,-0.174
3.958,-0.634
3.96,0.37
3.962,0.485
3.964,-0.783
3.966,0.367
3.968,-0.81
3.97,-0.702
3.972,0.822
3.974,-0.596
3.976,0.0176
3.978,0.533
3.98,0.22
3.982,0.282
3.984,0.499
3.986,-0.0692
3.988,-0.146
3.99,0.059
3.992,0.529
3.994,0.779
3.996,0.456
3.998,0.3
4,0.125
4.002,-0.026
4.004,-0.579
4.006,-0.182
4.008,-0.174
4.01,0.472
4.012,-0.511
4.014,-0.264
4.016,-0.585
4.018,0.553
4.02,0.307
4.022,-0.803
4.024,0.0446
4.026,0.0832
4.028,0.0732
4.03,0.1
4.032,0.0608
4.034,0.0436
4.036,0.0612
4.038,0.0597
4.04,0.104
4.042,0.0858
4.044,0.031
4.046,0.0627
4.048,0.103
4.05,0.103
4.052,0.114
4.054,0.0378
4.056,0.0775
4.058,0.0881
4.06,0.0911
4.062,0.0888
4.064,0.0946
4.066,0.111
4.068,0.076
4.07,0.134
4.072,0.0848
4.074,0.0808
4.076,0.109
4.078,0.0709
4.08,0.108
4.082,0.0412
4.084,0.0423
4.086,0.0652
4.088,0.0983
4.09,0.0556
4.092,0.0973
4.094,0.0677
4.096,0.0483
4.098,0.12
4.1,0.0904
4.102,0.0885
4.104,0.0481
4.106,0.0212
4.108,0.0883
4.11,0.0679
4.112,0.0479
4.114,0.111
4.116,0.108
4.118,0.0563
4.12,0.0639
4.122,0.0852
4.124,0.116
4.126,0.119
4.128,0.0483
4.13,0.0826
4.132,0.0495
4.134,0.132
4.136,0.0678
4.138,0.0993
4.14,0.0758
4.142,0.0784
4.144,0.0872
4.146,0.0926
4.148,0.0997
4.15,0.0747
4.152,0.0524
4.154,0.113
4.156,0.0737
4.158,0.128
4.16,0.0765
4.162,0.108
4.164,0.13
4.166,0.0293
4.168,0.0739
4.17,0.037
4.172,0.0896
4.174,0.0781
4.176,0.0422
4.178,0.129
4.18,0.118
4.182,0.123
4.184,0.0537
4.186,0.0401
4.188,0.054
4.19,0.0531
4.192,0.107
4.194,0.0602
4.196,0.0414
4.198,0.0534
4.2,0.0886
4.202,0.0713
4.204,0.101
4.206,0.131
4.208,0.0393
4.21,0.0776
4.212,0.0682
4.214,0.093
4.216,0.0529
4.218,0.0982
4.22,0.105
4.222,0.111
4.224,0.0917
4.226,0.0423
4.228,0.102
4.23,0.112
4.232,0.0939
4.234,0.0423
4.236,0.0591
4.238,0.0932
4.24,0.0904
4.242,0.144
4.244,0.105
4.246,0.0615
4.248,0.0898
4.25,0.107
4.252,0.0657
4.254,0.0671
4.256,0.0493
4.258,0.0893
4.26,0.107
4.262,0.0786
4.264,0.0676
4.266,0.0621
4.268,0.0692
4.27,0.0953
4.272,0.0766
4.274,0.05
4.276,0.0961
4.278,0.0829
4.28,0.11
4.282,0.0956
4.284,0.0473
4.286,0.118
4.288,0.0542
4.29,0.0645
4.292,0.0801
4.294,0.0594
4.296,0.0735
4.298,0.135
4.3,0.0407
4.302,0.0618
4.304,0.101
4.306,0.0548
4.308,0.0516
4.31,0.0912
4.312,0.0867
4.314,0.0891
4.316,-0.0596
4.318,0.536
4.32,-0.0332
4.322,0.45
4.324,-0.611
4.326,0.816
4.328,0.523
4.33,-0.794
4.332,0.147
4.334,-0.244
4.336,0.842
4.338,0.0851
4.34,0.155
4.342,0.091
4.344,0.207
4.346,0.0795
4.348,-0.0797
4.35,0.0534
4.352,0.207
4.354,0.973
4.356,-0.066
4.358,0.537
4.36,0.675
4.362,-0.842
4.364,-0.979
4.366,-0.362
4.368,0.265
4.37,-0.638
4.372,1.01
4.374,0.497
4.376,-0.0217
4.378,0.904
4.38,0.49
4.382,0.506
4.384,-1.12
4.386,-0.125
4.388,-0.161
4.39,0.0508
4.392,0.152
4.394,0.931
4.396,-0.591
4.398,0.296
4.4,-0.686
4.402,-0.669
4.404,-0.372
4.406,1.01
4.408,0.438
4.41,1.04
4.412,0.0168
4.414,0.516
4.416,0.694
4.418,-0.31
4.42,0.392
4.422,0.0609
4.424,0.166
4.426,0.0709
4.428,-0.778
4.43,-0.557
4.432,0.609
4.434,0.297
4.436,0.0327
4.438,-0.837
4.44,-0.0112
4.442,0.556
4.444,-0.213
4.446,0.182
4.448,0.0301
4.45,0.834
4.452,-0.2
4.454,-0.47
4.456,0.662
4.458,-0.208
4.46,0.136
4.462,0.34
4.464,0.388
4.466,-1.09
4.468,0.278
4.47,-0.035
4.472,-0.0712
4.474,1.05
4.476,1.02
4.478,-0.238
4.48,-0.355
4.482,-0.739
4.484,-0.122
4.486,-0.632
4.488,0.119
4.49,-0.278
4.492,0.243
4.494,-0.24
4.496,0.777
4.498,-0.23
4.5,0.0818
4.502,0.464
4.504,-0.24
4.506,-0.194
4.508,0.474
4.51,0.103
4.512,-0.854
4.514,0.483
4.516,-0.614
4.518,0.461
4.52,-0.00835
4.522,0.929
4.524,1.03
4.526,0.501
4.528,-0.976
4.53,-0.0243
4.532,0.625
4.534,0.798
4.536,0.532
4.538,-0.737
4.54,0.566
4.542,-0.527
4.544,-0.517
4.546,-0.636
4.548,-0.205
4.55,-0.237
4.552,-0.0197
4.554,-0.19
4.556,0.264
4.558,-0.284
4.56,-0.169
4.562,0.66
4.564,0.511
4.566,0.284
4.568,0.337
4.57,0.0691
4.572,0.313
4.574,-0.0927
4.576,-0.475
4.578,1.07
4.58,0.805
4.582,0.603
4.584,0.0128
4.586,-0.761
4.588,-0.648
4.59,-0.694
4.592,0.0775
4.594,0.773
4.596,-0.794
4.598,-0.381
4.6,0.864
4.602,-0.244
4.604,-0.624
4.606,0.583
4.608,1.01
4.61,0.432
4.612,1
4.614,0.571
4.616,-0.331
4.618,-0.169
4.62,0.682
4.622,0.479
4.624,-0.418
4.626,0.465
4.628,-0.0522
4.63,-0.43
4.632,-0.375
4.634,0.645
4.636,0.323
4.638,-0.509
4.64,-0.618
4.642,0.719
4.644,0.531
4.646,0.221
4.648,0.293
4.65,-0.504
4.652,0.389
4.654,-0.43
4.656,0.206
4.658,-0.436
4.66,0.108
4.662,-0.451
4.664,-0.691
4.666,-0.804
4.668,0.705
4.67,-0.495
4.672,-0.299
4.674,-0.225
4.676,-0.45
4.678,-0.314
4.68,0.5
4.682,-0.029
4.684,-0.722
4.686,0.312
4.688,-0.664
4.69,0.53
4.692,0.468
4.694,-0.849
4.696,0.631
4.698,0.437
4.7,-0.395
4.702,1.08
4.704,-0.056
4.706,1.12
4.708,0.207
4.71,0.863
4.712,0.459
4.714,-0.595
4.716,-0.0966
4.718,0.798
4.72,-0.173
4.722,1.1
4.724,0.139
4.726,-0.431
4.728,-0.505
4.73,0.195
4.732,0.514
4.734,-0.619
4.736,0.767
4.738,-0.494
4.74,-0.332
4.742,0.584
4.744,0.723
4.746,0.148
4.748,-0.04
4.75,0.329
4.752,1.1
4.754,0.512
4.756,0.286
4.758,-0.0955
4.76,-0.412
4.762,-0.522
4.764,-0.501
4.766,0.0965
4.768,0.469
4.77,0.504
4.772,0.493
4.774,-0.111
4.776,1.02
4.778,-0.646
4.78,-0.0252
4.782,-0.237
4.784,0.189
4.786,-0.303
4.788,0.14
4.79,0.719
4.792,0.29
4.794,0.889
4.796,-0.553
4.798,-0.542
4.8,-0.256
4.802,0.79
4.804,0.55
4.806,-0.331
4.808,0.668
4.81,0.334
4.812,1.06
4.814,0.992
4.816,-1.04
4.818,0.139
4.82,-0.608
4.822,0.407
4.824,0.0207
4.826,0.159
4.828,-0.165
4.83,0.13
4.832,0.0541
4.834,0.0259
4.836,0.034
4.838,0.0376
4.84,0.0577
4.842,0.0567
4.844,0.11
4.846,0.0479
4.848,0.125
4.85,0.0647
4.852,0.076
4.854,0.137
4.856,0.0541
4.858,0.11
4.86,0.0344
4.862,0.0625
4.864,0.0778
4.866,0.0524
4.868,0.0806
4.87,0.0611
4.872,0.0538
4.874,0.0455
4.876,0.0675
4.878,0.0738
4.88,0.0427
4.882,0.116
4.884,0.0734
4.886,0.091
4.888,0.0869
4.89,0.0329
4.892,0.099
4.894,0.118
4.896,0.0825
4.898,0.103
4.9,0.104
4.902,0.054
4.904,0.0636
4.906,0.0373
4.908,0.0661
4.91,0.0588
4.912,0.0936
4.914,0.0478
4.916,0.0327
4.918,0.088
4.92,0.114
4.922,0.0987
4.924,0.0355
4.926,0.134
4.928,0.0464
4.93,0.0544
4.932,0.0498
4.934,0.0812
4.936,0.0517
4.938,0.0826
4.94,0.086
4.942,0.0712
4.944,0.0534
4.946,0.115
4.948,0.0821
4.95,0.0613
4.952,0.1
4.954,0.0685
4.956,0.125
4.958,0.0817
4.96,0.108
4.962,0.0591
4.964,0.0798
4.966,0.0795
4.968,0.107
4.97,0.104
4.972,0.0754
4.974,0.116
4.976,0.0958
4.978,0.0647
4.98,0.118
4.982,0.0775
4.984,0.0767
4.986,0.0935
4.988,0.066
4.99,0.121
4.992,0.102
4.994,0.0855
4.996,0.0674
4.998,0.0702
5,0.0774
5.002,0.0712
5.004,0.0895
5.006,0.0881
5.008,0.118
5.01,0.0814
5.012,0.125
5.014,0.0344
5.016,0.0619
5.018,0.108
5.02,0.0537
5.022,0.117
5.024,0.105
5.026,0.0637
5.028,0.0872
5.03,0.119
5.032,0.0853
5.034,0.104
5.036,0.0316
5.038,0.107
5.04,0.105
5.042,0.0661
5.044,0.0794
5.046,0.0785
5.048,0.0525
5.05,0.071
5.052,0.113
5.054,0.0386
5.056,0.0776
5.058,0.0493
5.06,0.0991
5.062,0.113
5.064,0.125
5.066,0.057
5.068,0.0929
5.07,0.0932
5.072,0.0442
5.074,0.115
5.076,0.0723
5.078,0.0683
5.08,0.028
5.082,0.105
5.084,0.0553
5.086,0.115
5.088,0.0487
5.09,0.122
5.092,0.0296
5.094,0.0548
5.096,0.0741
5.098,0.0501
5.1,0.119
5.102,0.121
5.104,0.0956
5.106,0.088
5.108,0.0847
5.11,0.101
5.112,0.0854
5.114,0.104
5.116,0.0501
5.118,0.0771
